Phonon Scattering and Transmission at Silicon-Helium Interfaces,J. R. Olson,Cornell University 1993
T(K),k(W/m/K),k/T
5.83E-02,1.67E-05,2.86E-04
7.68E-02,3.24E-05,4.22E-04
0.104,6.99E-05,6.72E-04
0.139,1.56E-04,1.12E-03
0.198,3.99E-04,2.02E-03
0.266,8.50E-04,3.20E-03
0.346,1.61E-03,4.65E-03
0.454,2.84E-03,6.26E-03
0.594,5.37E-03,9.04E-03
0.825,1.02E-02,1.24E-02
1.081,1.76E-02,1.63E-02
1.405,2.92E-02,2.08E-02
1.765,3.68E-02,2.08E-02